# Pulseq sequence file
# Created by MATLAB mr toolbox

[VERSION]
major 1
minor 4
revision 1

[DEFINITIONS]
AdcRasterTime 1e-07 
BlockDurationRaster 1e-05 
FOV 0.256 0.256 0.003 
GradientRasterTime 1e-05 
Name gresp 
RadiofrequencyRasterTime 1e-06 
TotalDuration 5.12 

# Format of blocks:
# NUM DUR RF  GX  GY  GZ  ADC  EXT
[BLOCKS]
   1 319   1   0   0   1  0  0
   2 100   0   2   3   4  0  0
   3  81   0   0   0   0  0  0
   4 745   0   5   7   6  1  0
   5 755   0   0   0   0  0  0
   6 319   2   0   0   1  0  0
   7 100   0   2   8   4  0  0
   8  81   0   0   0   0  0  0
   9 745   0   5   9   6  2  0
  10 755   0   0   0   0  0  0
  11 319   3   0   0   1  0  0
  12 100   0   2  10   4  0  0
  13  81   0   0   0   0  0  0
  14 745   0   5  11   6  3  0
  15 755   0   0   0   0  0  0
  16 319   4   0   0   1  0  0
  17 100   0   2  12   4  0  0
  18  81   0   0   0   0  0  0
  19 745   0   5  13   6  4  0
  20 755   0   0   0   0  0  0
  21 319   5   0   0   1  0  0
  22 100   0   2  14   4  0  0
  23  81   0   0   0   0  0  0
  24 745   0   5  15   6  5  0
  25 755   0   0   0   0  0  0
  26 319   1   0   0   1  0  0
  27 100   0   2  16   4  0  0
  28  81   0   0   0   0  0  0
  29 745   0   5  17   6  1  0
  30 755   0   0   0   0  0  0
  31 319   6   0   0   1  0  0
  32 100   0   2  18   4  0  0
  33  81   0   0   0   0  0  0
  34 745   0   5  19   6  6  0
  35 755   0   0   0   0  0  0
  36 319   7   0   0   1  0  0
  37 100   0   2  20   4  0  0
  38  81   0   0   0   0  0  0
  39 745   0   5  21   6  7  0
  40 755   0   0   0   0  0  0
  41 319   8   0   0   1  0  0
  42 100   0   2  22   4  0  0
  43  81   0   0   0   0  0  0
  44 745   0   5  23   6  8  0
  45 755   0   0   0   0  0  0
  46 319   5   0   0   1  0  0
  47 100   0   2  24   4  0  0
  48  81   0   0   0   0  0  0
  49 745   0   5  25   6  5  0
  50 755   0   0   0   0  0  0
  51 319   3   0   0   1  0  0
  52 100   0   2  26   4  0  0
  53  81   0   0   0   0  0  0
  54 745   0   5  27   6  3  0
  55 755   0   0   0   0  0  0
  56 319   9   0   0   1  0  0
  57 100   0   2  28   4  0  0
  58  81   0   0   0   0  0  0
  59 745   0   5  29   6  9  0
  60 755   0   0   0   0  0  0
  61 319  10   0   0   1  0  0
  62 100   0   2  30   4  0  0
  63  81   0   0   0   0  0  0
  64 745   0   5  31   6 10  0
  65 755   0   0   0   0  0  0
  66 319   8   0   0   1  0  0
  67 100   0   2  32   4  0  0
  68  81   0   0   0   0  0  0
  69 745   0   5  33   6  8  0
  70 755   0   0   0   0  0  0
  71 319  11   0   0   1  0  0
  72 100   0   2  34   4  0  0
  73  81   0   0   0   0  0  0
  74 745   0   5  35   6 11  0
  75 755   0   0   0   0  0  0
  76 319   7   0   0   1  0  0
  77 100   0   2  36   4  0  0
  78  81   0   0   0   0  0  0
  79 745   0   5  37   6  7  0
  80 755   0   0   0   0  0  0
  81 319  12   0   0   1  0  0
  82 100   0   2  38   4  0  0
  83  81   0   0   0   0  0  0
  84 745   0   5  39   6 12  0
  85 755   0   0   0   0  0  0
  86 319  10   0   0   1  0  0
  87 100   0   2  40   4  0  0
  88  81   0   0   0   0  0  0
  89 745   0   5  41   6 10  0
  90 755   0   0   0   0  0  0
  91 319   4   0   0   1  0  0
  92 100   0   2  42   4  0  0
  93  81   0   0   0   0  0  0
  94 745   0   5  43   6  4  0
  95 755   0   0   0   0  0  0
  96 319   4   0   0   1  0  0
  97 100   0   2  44   4  0  0
  98  81   0   0   0   0  0  0
  99 745   0   5  45   6  4  0
 100 755   0   0   0   0  0  0
 101 319  10   0   0   1  0  0
 102 100   0   2  46   4  0  0
 103  81   0   0   0   0  0  0
 104 745   0   5  47   6 10  0
 105 755   0   0   0   0  0  0
 106 319  12   0   0   1  0  0
 107 100   0   2  48   4  0  0
 108  81   0   0   0   0  0  0
 109 745   0   5  49   6 12  0
 110 755   0   0   0   0  0  0
 111 319   7   0   0   1  0  0
 112 100   0   2  50   4  0  0
 113  81   0   0   0   0  0  0
 114 745   0   5  51   6  7  0
 115 755   0   0   0   0  0  0
 116 319  11   0   0   1  0  0
 117 100   0   2  52   4  0  0
 118  81   0   0   0   0  0  0
 119 745   0   5  53   6 11  0
 120 755   0   0   0   0  0  0
 121 319   8   0   0   1  0  0
 122 100   0   2  54   4  0  0
 123  81   0   0   0   0  0  0
 124 745   0   5  55   6  8  0
 125 755   0   0   0   0  0  0
 126 319  10   0   0   1  0  0
 127 100   0   2  56   4  0  0
 128  81   0   0   0   0  0  0
 129 745   0   5  57   6 10  0
 130 755   0   0   0   0  0  0
 131 319   9   0   0   1  0  0
 132 100   0   2  58   4  0  0
 133  81   0   0   0   0  0  0
 134 745   0   5  59   6  9  0
 135 755   0   0   0   0  0  0
 136 319   3   0   0   1  0  0
 137 100   0   2  60   4  0  0
 138  81   0   0   0   0  0  0
 139 745   0   5  61   6  3  0
 140 755   0   0   0   0  0  0
 141 319   5   0   0   1  0  0
 142 100   0   2  62   4  0  0
 143  81   0   0   0   0  0  0
 144 745   0   5  63   6  5  0
 145 755   0   0   0   0  0  0
 146 319   8   0   0   1  0  0
 147 100   0   2  64   4  0  0
 148  81   0   0   0   0  0  0
 149 745   0   5  65   6  8  0
 150 755   0   0   0   0  0  0
 151 319   7   0   0   1  0  0
 152 100   0   2  66   4  0  0
 153  81   0   0   0   0  0  0
 154 745   0   5  67   6  7  0
 155 755   0   0   0   0  0  0
 156 319   6   0   0   1  0  0
 157 100   0   2  68   4  0  0
 158  81   0   0   0   0  0  0
 159 745   0   5  69   6  6  0
 160 755   0   0   0   0  0  0
 161 319   1   0   0   1  0  0
 162 100   0   2  70   4  0  0
 163  81   0   0   0   0  0  0
 164 745   0   5  71   6  1  0
 165 755   0   0   0   0  0  0
 166 319   5   0   0   1  0  0
 167 100   0   2  72   4  0  0
 168  81   0   0   0   0  0  0
 169 745   0   5  73   6  5  0
 170 755   0   0   0   0  0  0
 171 319   4   0   0   1  0  0
 172 100   0   2  74   4  0  0
 173  81   0   0   0   0  0  0
 174 745   0   5  75   6  4  0
 175 755   0   0   0   0  0  0
 176 319   3   0   0   1  0  0
 177 100   0   2  76   4  0  0
 178  81   0   0   0   0  0  0
 179 745   0   5  77   6  3  0
 180 755   0   0   0   0  0  0
 181 319   2   0   0   1  0  0
 182 100   0   2  78   4  0  0
 183  81   0   0   0   0  0  0
 184 745   0   5  79   6  2  0
 185 755   0   0   0   0  0  0
 186 319   1   0   0   1  0  0
 187 100   0   2  80   4  0  0
 188  81   0   0   0   0  0  0
 189 745   0   5  81   6  1  0
 190 755   0   0   0   0  0  0
 191 319  11   0   0   1  0  0
 192 100   0   2  82   4  0  0
 193  81   0   0   0   0  0  0
 194 745   0   5  83   6 11  0
 195 755   0   0   0   0  0  0
 196 319  11   0   0   1  0  0
 197 100   0   2  84   4  0  0
 198  81   0   0   0   0  0  0
 199 745   0   5  85   6 11  0
 200 755   0   0   0   0  0  0
 201 319   1   0   0   1  0  0
 202 100   0   2  86   4  0  0
 203  81   0   0   0   0  0  0
 204 745   0   5  87   6  1  0
 205 755   0   0   0   0  0  0
 206 319   2   0   0   1  0  0
 207 100   0   2  88   4  0  0
 208  81   0   0   0   0  0  0
 209 745   0   5  89   6  2  0
 210 755   0   0   0   0  0  0
 211 319   3   0   0   1  0  0
 212 100   0   2  90   4  0  0
 213  81   0   0   0   0  0  0
 214 745   0   5  91   6  3  0
 215 755   0   0   0   0  0  0
 216 319   4   0   0   1  0  0
 217 100   0   2  92   4  0  0
 218  81   0   0   0   0  0  0
 219 745   0   5  93   6  4  0
 220 755   0   0   0   0  0  0
 221 319   5   0   0   1  0  0
 222 100   0   2  94   4  0  0
 223  81   0   0   0   0  0  0
 224 745   0   5  95   6  5  0
 225 755   0   0   0   0  0  0
 226 319   1   0   0   1  0  0
 227 100   0   2  96   4  0  0
 228  81   0   0   0   0  0  0
 229 745   0   5  97   6  1  0
 230 755   0   0   0   0  0  0
 231 319   6   0   0   1  0  0
 232 100   0   2  98   4  0  0
 233  81   0   0   0   0  0  0
 234 745   0   5  99   6  6  0
 235 755   0   0   0   0  0  0
 236 319   7   0   0   1  0  0
 237 100   0   2 100   4  0  0
 238  81   0   0   0   0  0  0
 239 745   0   5 101   6  7  0
 240 755   0   0   0   0  0  0
 241 319   8   0   0   1  0  0
 242 100   0   2 102   4  0  0
 243  81   0   0   0   0  0  0
 244 745   0   5 103   6  8  0
 245 755   0   0   0   0  0  0
 246 319   5   0   0   1  0  0
 247 100   0   2 104   4  0  0
 248  81   0   0   0   0  0  0
 249 745   0   5 105   6  5  0
 250 755   0   0   0   0  0  0
 251 319   3   0   0   1  0  0
 252 100   0   2 106   4  0  0
 253  81   0   0   0   0  0  0
 254 745   0   5 107   6  3  0
 255 755   0   0   0   0  0  0
 256 319   9   0   0   1  0  0
 257 100   0   2 108   4  0  0
 258  81   0   0   0   0  0  0
 259 745   0   5 109   6  9  0
 260 755   0   0   0   0  0  0
 261 319  10   0   0   1  0  0
 262 100   0   2 110   4  0  0
 263  81   0   0   0   0  0  0
 264 745   0   5 111   6 10  0
 265 755   0   0   0   0  0  0
 266 319   8   0   0   1  0  0
 267 100   0   2 112   4  0  0
 268  81   0   0   0   0  0  0
 269 745   0   5 113   6  8  0
 270 755   0   0   0   0  0  0
 271 319  11   0   0   1  0  0
 272 100   0   2 114   4  0  0
 273  81   0   0   0   0  0  0
 274 745   0   5 115   6 11  0
 275 755   0   0   0   0  0  0
 276 319   7   0   0   1  0  0
 277 100   0   2 116   4  0  0
 278  81   0   0   0   0  0  0
 279 745   0   5 117   6  7  0
 280 755   0   0   0   0  0  0
 281 319  12   0   0   1  0  0
 282 100   0   2 118   4  0  0
 283  81   0   0   0   0  0  0
 284 745   0   5 119   6 12  0
 285 755   0   0   0   0  0  0
 286 319  10   0   0   1  0  0
 287 100   0   2 120   4  0  0
 288  81   0   0   0   0  0  0
 289 745   0   5 121   6 10  0
 290 755   0   0   0   0  0  0
 291 319   4   0   0   1  0  0
 292 100   0   2 122   4  0  0
 293  81   0   0   0   0  0  0
 294 745   0   5 123   6  4  0
 295 755   0   0   0   0  0  0
 296 319   4   0   0   1  0  0
 297 100   0   2 124   4  0  0
 298  81   0   0   0   0  0  0
 299 745   0   5 125   6  4  0
 300 755   0   0   0   0  0  0
 301 319  10   0   0   1  0  0
 302 100   0   2 126   4  0  0
 303  81   0   0   0   0  0  0
 304 745   0   5 127   6 10  0
 305 755   0   0   0   0  0  0
 306 319  12   0   0   1  0  0
 307 100   0   2 128   4  0  0
 308  81   0   0   0   0  0  0
 309 745   0   5 129   6 12  0
 310 755   0   0   0   0  0  0
 311 319   7   0   0   1  0  0
[RF]
1      37.2185 1 2 0 100 0 1.88496
2      37.2185 1 2 0 100 0 3.76991
3      37.2185 1 2 0 100 0 3.45575
4      37.2185 1 2 0 100 0 0.942478
5      37.2185 1 2 0 100 0 2.51327
6      37.2185 1 2 0 100 0 5.34071
7      37.2185 1 2 0 100 0 0.314159
8      37.2185 1 2 0 100 0 5.65487
9      37.2185 1 2 0 100 0 2.19911
10      37.2185 1 2 0 100 0 5.02655
11      37.2185 1 2 0 100 0 4.08407
12      37.2185 1 2 0 100 0 0.628319

# Format of arbitrary gradients:
#   time_shape_id of 0 means default timing (stepping with grad_raster starting at 1/2 of grad_raster)
# id amplitude amp_shape_id time_shape_id delay
# ..      Hz/m       ..         ..          us
[GRADIENTS]
5       936487 3 4 0

# Format of trapezoid gradients:
# id amplitude rise flat fall delay
# ..      Hz/m   us   us   us    us
[TRAP]
 1       444444  90 3000  90  10
 2      -574840 120  760 120   0
 3      -561798 110  780 110   0
 4      -827309 170  660 170   0
 6       932401 190 1240 190 5160
 7       561798 110  780 110 5160
 8      -557409 110  780 110   0
 9       557409 110  780 110 5160
10      -553020 110  780 110   0
11       553020 110  780 110 5160
12      -548631 110  780 110   0
13       548631 110  780 110 5160
14      -544242 110  780 110   0
15       544242 110  780 110 5160
16      -539853 110  780 110   0
17       539853 110  780 110 5160
18      -535463 110  780 110   0
19       535463 110  780 110 5160
20      -531074 110  780 110   0
21       531074 110  780 110 5160
22      -526685 110  780 110   0
23       526685 110  780 110 5160
24      -522296 110  780 110   0
25       522296 110  780 110 5160
26      -517907 110  780 110   0
27       517907 110  780 110 5160
28      -513518 110  780 110   0
29       513518 110  780 110 5160
30      -509129 110  780 110   0
31       509129 110  780 110 5160
32      -504740 110  780 110   0
33       504740 110  780 110 5160
34      -500351 110  780 110   0
35       500351 110  780 110 5160
36      -495962 110  780 110   0
37       495962 110  780 110 5160
38      -491573 110  780 110   0
39       491573 110  780 110 5160
40      -487184 110  780 110   0
41       487184 110  780 110 5160
42      -482795 110  780 110   0
43       482795 110  780 110 5160
44      -478406 110  780 110   0
45       478406 110  780 110 5160
46      -474017 110  780 110   0
47       474017 110  780 110 5160
48      -469628 110  780 110   0
49       469628 110  780 110 5160
50      -465239 110  780 110   0
51       465239 110  780 110 5160
52      -460850 110  780 110   0
53       460850 110  780 110 5160
54      -456461 110  780 110   0
55       456461 110  780 110 5160
56      -452072 110  780 110   0
57       452072 110  780 110 5160
58      -447683 110  780 110   0
59       447683 110  780 110 5160
60      -443294 110  780 110   0
61       443294 110  780 110 5160
62      -438904 110  780 110   0
63       438904 110  780 110 5160
64      -434515 110  780 110   0
65       434515 110  780 110 5160
66      -430126 110  780 110   0
67       430126 110  780 110 5160
68      -425737 110  780 110   0
69       425737 110  780 110 5160
70      -421348 110  780 110   0
71       421348 110  780 110 5160
72      -416959 110  780 110   0
73       416959 110  780 110 5160
74      -412570 110  780 110   0
75       412570 110  780 110 5160
76      -408181 110  780 110   0
77       408181 110  780 110 5160
78      -403792 110  780 110   0
79       403792 110  780 110 5160
80      -399403 110  780 110   0
81       399403 110  780 110 5160
82      -395014 110  780 110   0
83       395014 110  780 110 5160
84      -390625 110  780 110   0
85       390625 110  780 110 5160
86      -386236 110  780 110   0
87       386236 110  780 110 5160
88      -381847 110  780 110   0
89       381847 110  780 110 5160
90      -377458 110  780 110   0
91       377458 110  780 110 5160
92      -373069 110  780 110   0
93       373069 110  780 110 5160
94      -368680 110  780 110   0
95       368680 110  780 110 5160
96      -364291 110  780 110   0
97       364291 110  780 110 5160
98      -359902 110  780 110   0
99       359902 110  780 110 5160
100      -355513 110  780 110   0
101       355513 110  780 110 5160
102      -351124 110  780 110   0
103       351124 110  780 110 5160
104      -346735 110  780 110   0
105       346735 110  780 110 5160
106      -342346 110  780 110   0
107       342346 110  780 110 5160
108      -337956 110  780 110   0
109       337956 110  780 110 5160
110      -333567 110  780 110   0
111       333567 110  780 110 5160
112      -329178 110  780 110   0
113       329178 110  780 110 5160
114      -324789 110  780 110   0
115       324789 110  780 110 5160
116      -320400 110  780 110   0
117       320400 110  780 110 5160
118      -316011 110  780 110   0
119       316011 110  780 110 5160
120      -311622 110  780 110   0
121       311622 110  780 110 5160
122      -307233 110  780 110   0
123       307233 110  780 110 5160
124      -302844 110  780 110   0
125       302844 110  780 110 5160
126      -298455 110  780 110   0
127       298455 110  780 110 5160
128      -294066 110  780 110   0
129       294066 110  780 110 5160
130      -289677 110  780 110   0
131       289677 110  780 110 5160
132      -285288 110  780 110   0
133       285288 110  780 110 5160
134      -280899 110  780 110   0
135       280899 110  780 110 5160
136      -276510 110  780 110   0
137       276510 110  780 110 5160
138      -272121 110  780 110   0
139       272121 110  780 110 5160
140      -267732 110  780 110   0
141       267732 110  780 110 5160
142      -263343 110  780 110   0
143       263343 110  780 110 5160
144      -258954 110  780 110   0
145       258954 110  780 110 5160
146      -254565 110  780 110   0
147       254565 110  780 110 5160
148      -250176 110  780 110   0
149       250176 110  780 110 5160
150      -245787 110  780 110   0
151       245787 110  780 110 5160
152      -241397 110  780 110   0
153       241397 110  780 110 5160
154      -237008 110  780 110   0
155       237008 110  780 110 5160
156      -232619 110  780 110   0
157       232619 110  780 110 5160
158      -228230 110  780 110   0
159       228230 110  780 110 5160
160      -223841 110  780 110   0
161       223841 110  780 110 5160
162      -219452 110  780 110   0
163       219452 110  780 110 5160
164      -215063 110  780 110   0
165       215063 110  780 110 5160
166      -210674 110  780 110   0
167       210674 110  780 110 5160
168      -206285 110  780 110   0
169       206285 110  780 110 5160
170      -201896 110  780 110   0
171       201896 110  780 110 5160
172      -197507 110  780 110   0
173       197507 110  780 110 5160
174      -193118 110  780 110   0
175       193118 110  780 110 5160
176      -188729 110  780 110   0
177       188729 110  780 110 5160
178      -184340 110  780 110   0
179       184340 110  780 110 5160
180      -179951 110  780 110   0
181       179951 110  780 110 5160
182      -175562 110  780 110   0
183       175562 110  780 110 5160
184      -171173 110  780 110   0
185       171173 110  780 110 5160
186      -166784 110  780 110   0
187       166784 110  780 110 5160
188      -162395 110  780 110   0
189       162395 110  780 110 5160
190      -158006 110  780 110   0
191       158006 110  780 110 5160
192      -153617 110  780 110   0
193       153617 110  780 110 5160
194      -149228 110  780 110   0
195       149228 110  780 110 5160
196      -144838 110  780 110   0
197       144838 110  780 110 5160
198      -140449 110  780 110   0
199       140449 110  780 110 5160
200      -136060 110  780 110   0
201       136060 110  780 110 5160
202      -131671 110  780 110   0
203       131671 110  780 110 5160
204      -127282 110  780 110   0
205       127282 110  780 110 5160
206      -122893 110  780 110   0
207       122893 110  780 110 5160
208      -118504 110  780 110   0
209       118504 110  780 110 5160
210      -114115 110  780 110   0
211       114115 110  780 110 5160
212      -109726 110  780 110   0
213       109726 110  780 110 5160
214      -105337 110  780 110   0
215       105337 110  780 110 5160
216      -100948 110  780 110   0
217       100948 110  780 110 5160
218       -96559 110  780 110   0
219        96559 110  780 110 5160
220     -92169.9 110  780 110   0
221      92169.9 110  780 110 5160
222     -87780.9 110  780 110   0
223      87780.9 110  780 110 5160
224     -83391.9 110  780 110   0
225      83391.9 110  780 110 5160
226     -79002.8 110  780 110   0
227      79002.8 110  780 110 5160
228     -74613.8 110  780 110   0
229      74613.8 110  780 110 5160
230     -70224.7 110  780 110   0
231      70224.7 110  780 110 5160
232     -65835.7 110  780 110   0
233      65835.7 110  780 110 5160
234     -61446.6 110  780 110   0
235      61446.6 110  780 110 5160
236     -57057.6 110  780 110   0
237      57057.6 110  780 110 5160
238     -52668.5 110  780 110   0
239      52668.5 110  780 110 5160
240     -48279.5 110  780 110   0
241      48279.5 110  780 110 5160
242     -43890.4 110  780 110   0
243      43890.4 110  780 110 5160
244     -39501.4 110  780 110   0
245      39501.4 110  780 110 5160
246     -35112.4 110  780 110   0
247      35112.4 110  780 110 5160
248     -30723.3 110  780 110   0
249      30723.3 110  780 110 5160
250     -26334.3 110  780 110   0
251      26334.3 110  780 110 5160
252     -21945.2 110  780 110   0
253      21945.2 110  780 110 5160
254     -17556.2 110  780 110   0
255      17556.2 110  780 110 5160
256     -13167.1 110  780 110   0
257      13167.1 110  780 110 5160
258     -8778.09 110  780 110   0
259      8778.09 110  780 110 5160
260     -4389.04 110  780 110   0
261      4389.04 110  780 110 5160
262            0 110  780 110   0
263           -0 110  780 110 5160
264      4389.04 110  780 110   0
265     -4389.04 110  780 110 5160
266      8778.09 110  780 110   0
267     -8778.09 110  780 110 5160
268      13167.1 110  780 110   0
269     -13167.1 110  780 110 5160
270      17556.2 110  780 110   0
271     -17556.2 110  780 110 5160
272      21945.2 110  780 110   0
273     -21945.2 110  780 110 5160
274      26334.3 110  780 110   0
275     -26334.3 110  780 110 5160
276      30723.3 110  780 110   0
277     -30723.3 110  780 110 5160
278      35112.4 110  780 110   0
279     -35112.4 110  780 110 5160
280      39501.4 110  780 110   0
281     -39501.4 110  780 110 5160
282      43890.4 110  780 110   0
283     -43890.4 110  780 110 5160
284      48279.5 110  780 110   0
285     -48279.5 110  780 110 5160
286      52668.5 110  780 110   0
287     -52668.5 110  780 110 5160
288      57057.6 110  780 110   0
289     -57057.6 110  780 110 5160
290      61446.6 110  780 110   0
291     -61446.6 110  780 110 5160
292      65835.7 110  780 110   0
293     -65835.7 110  780 110 5160
294      70224.7 110  780 110   0
295     -70224.7 110  780 110 5160
296      74613.8 110  780 110   0
297     -74613.8 110  780 110 5160
298      79002.8 110  780 110   0
299     -79002.8 110  780 110 5160
300      83391.9 110  780 110   0
301     -83391.9 110  780 110 5160
302      87780.9 110  780 110   0
303     -87780.9 110  780 110 5160
304      92169.9 110  780 110   0
305     -92169.9 110  780 110 5160
306        96559 110  780 110   0
307       -96559 110  780 110 5160
308       100948 110  780 110   0
309      -100948 110  780 110 5160
310       105337 110  780 110   0
311      -105337 110  780 110 5160
312       109726 110  780 110   0
313      -109726 110  780 110 5160
314       114115 110  780 110   0
315      -114115 110  780 110 5160
316       118504 110  780 110   0
317      -118504 110  780 110 5160
318       122893 110  780 110   0
319      -122893 110  780 110 5160
320       127282 110  780 110   0
321      -127282 110  780 110 5160
322       131671 110  780 110   0
323      -131671 110  780 110 5160
324       136060 110  780 110   0
325      -136060 110  780 110 5160
326       140449 110  780 110   0
327      -140449 110  780 110 5160
328       144838 110  780 110   0
329      -144838 110  780 110 5160
330       149228 110  780 110   0
331      -149228 110  780 110 5160
332       153617 110  780 110   0
333      -153617 110  780 110 5160
334       158006 110  780 110   0
335      -158006 110  780 110 5160
336       162395 110  780 110   0
337      -162395 110  780 110 5160
338       166784 110  780 110   0
339      -166784 110  780 110 5160
340       171173 110  780 110   0
341      -171173 110  780 110 5160
342       175562 110  780 110   0
343      -175562 110  780 110 5160
344       179951 110  780 110   0
345      -179951 110  780 110 5160
346       184340 110  780 110   0
347      -184340 110  780 110 5160
348       188729 110  780 110   0
349      -188729 110  780 110 5160
350       193118 110  780 110   0
351      -193118 110  780 110 5160
352       197507 110  780 110   0
353      -197507 110  780 110 5160
354       201896 110  780 110   0
355      -201896 110  780 110 5160
356       206285 110  780 110   0
357      -206285 110  780 110 5160
358       210674 110  780 110   0
359      -210674 110  780 110 5160
360       215063 110  780 110   0
361      -215063 110  780 110 5160
362       219452 110  780 110   0
363      -219452 110  780 110 5160
364       223841 110  780 110   0
365      -223841 110  780 110 5160
366       228230 110  780 110   0
367      -228230 110  780 110 5160
368       232619 110  780 110   0
369      -232619 110  780 110 5160
370       237008 110  780 110   0
371      -237008 110  780 110 5160
372       241397 110  780 110   0
373      -241397 110  780 110 5160
374       245787 110  780 110   0
375      -245787 110  780 110 5160
376       250176 110  780 110   0
377      -250176 110  780 110 5160
378       254565 110  780 110   0
379      -254565 110  780 110 5160
380       258954 110  780 110   0
381      -258954 110  780 110 5160
382       263343 110  780 110   0
383      -263343 110  780 110 5160
384       267732 110  780 110   0
385      -267732 110  780 110 5160
386       272121 110  780 110   0
387      -272121 110  780 110 5160
388       276510 110  780 110   0
389      -276510 110  780 110 5160
390       280899 110  780 110   0
391      -280899 110  780 110 5160
392       285288 110  780 110   0
393      -285288 110  780 110 5160
394       289677 110  780 110   0
395      -289677 110  780 110 5160
396       294066 110  780 110   0
397      -294066 110  780 110 5160
398       298455 110  780 110   0
399      -298455 110  780 110 5160
400       302844 110  780 110   0
401      -302844 110  780 110 5160
402       307233 110  780 110   0
403      -307233 110  780 110 5160
404       311622 110  780 110   0
405      -311622 110  780 110 5160
406       316011 110  780 110   0
407      -316011 110  780 110 5160
408       320400 110  780 110   0
409      -320400 110  780 110 5160
410       324789 110  780 110   0
411      -324789 110  780 110 5160
412       329178 110  780 110   0
413      -329178 110  780 110 5160
414       333567 110  780 110   0
415      -333567 110  780 110 5160
416       337956 110  780 110   0
417      -337956 110  780 110 5160
418       342346 110  780 110   0
419      -342346 110  780 110 5160
420       346735 110  780 110   0
421      -346735 110  780 110 5160
422       351124 110  780 110   0
423      -351124 110  780 110 5160
424       355513 110  780 110   0
425      -355513 110  780 110 5160
426       359902 110  780 110   0
427      -359902 110  780 110 5160
428       364291 110  780 110   0
429      -364291 110  780 110 5160
430       368680 110  780 110   0
431      -368680 110  780 110 5160
432       373069 110  780 110   0
433      -373069 110  780 110 5160
434       377458 110  780 110   0
435      -377458 110  780 110 5160
436       381847 110  780 110   0
437      -381847 110  780 110 5160
438       386236 110  780 110   0
439      -386236 110  780 110 5160
440       390625 110  780 110   0
441      -390625 110  780 110 5160
442       395014 110  780 110   0
443      -395014 110  780 110 5160
444       399403 110  780 110   0
445      -399403 110  780 110 5160
446       403792 110  780 110   0
447      -403792 110  780 110 5160
448       408181 110  780 110   0
449      -408181 110  780 110 5160
450       412570 110  780 110   0
451      -412570 110  780 110 5160
452       416959 110  780 110   0
453      -416959 110  780 110 5160
454       421348 110  780 110   0
455      -421348 110  780 110 5160
456       425737 110  780 110   0
457      -425737 110  780 110 5160
458       430126 110  780 110   0
459      -430126 110  780 110 5160
460       434515 110  780 110   0
461      -434515 110  780 110 5160
462       438904 110  780 110   0
463      -438904 110  780 110 5160
464       443294 110  780 110   0
465      -443294 110  780 110 5160
466       447683 110  780 110   0
467      -447683 110  780 110 5160
468       452072 110  780 110   0
469      -452072 110  780 110 5160
470       456461 110  780 110   0
471      -456461 110  780 110 5160
472       460850 110  780 110   0
473      -460850 110  780 110 5160
474       465239 110  780 110   0
475      -465239 110  780 110 5160
476       469628 110  780 110   0
477      -469628 110  780 110 5160
478       474017 110  780 110   0
479      -474017 110  780 110 5160
480       478406 110  780 110   0
481      -478406 110  780 110 5160
482       482795 110  780 110   0
483      -482795 110  780 110 5160
484       487184 110  780 110   0
485      -487184 110  780 110 5160
486       491573 110  780 110   0
487      -491573 110  780 110 5160
488       495962 110  780 110   0
489      -495962 110  780 110 5160
490       500351 110  780 110   0
491      -500351 110  780 110 5160
492       504740 110  780 110   0
493      -504740 110  780 110 5160
494       509129 110  780 110   0
495      -509129 110  780 110 5160
496       513518 110  780 110   0
497      -513518 110  780 110 5160
498       517907 110  780 110   0
499      -517907 110  780 110 5160
500       522296 110  780 110   0
501      -522296 110  780 110 5160
502       526685 110  780 110   0
503      -526685 110  780 110 5160
504       531074 110  780 110   0
505      -531074 110  780 110 5160
506       535463 110  780 110   0
507      -535463 110  780 110 5160
508       539853 110  780 110   0
509      -539853 110  780 110 5160
510       544242 110  780 110   0
511      -544242 110  780 110 5160
512       548631 110  780 110   0
513      -548631 110  780 110 5160
514       553020 110  780 110   0
515      -553020 110  780 110 5160
516       557409 110  780 110   0
517      -557409 110  780 110 5160

# Format of ADC events:
# id num dwell delay freq phase
# ..  ..    ns    us   Hz   rad
[ADC]
1 256 20000 40 0 1.88496
2 256 20000 40 0 3.76991
3 256 20000 40 0 3.45575
4 256 20000 40 0 0.942478
5 256 20000 40 0 2.51327
6 256 20000 40 0 5.34071
7 256 20000 40 0 0.314159
8 256 20000 40 0 5.65487
9 256 20000 40 0 2.19911
10 256 20000 40 0 5.02655
11 256 20000 40 0 4.08407
12 256 20000 40 0 0.628319

# Sequence Shapes
[SHAPES]

shape_id 1
num_samples 3000
5.33512061e-05
0.000160161335
0.000267116839
0.000374219827
0.000481472412
0.000588876712
0.00069643485
0.000804148955
0.000912021157
0.00102005359
0.0011282484
0.00123660773
0.00134513373
0.00145382854
0.00156269432
0.00167173322
0.00178094741
0.00189033905
0.0019999103
0.00210966333
0.00221960031
0.00232972341
0.00244003479
0.00255053664
0.00266123112
0.00277212042
0.0028832067
0.00299449215
0.00310597893
0.00321766924
0.00332956523
0.0034416691
0.00355398301
0.00366650915
0.00377924967
0.00389220677
0.0040053826
0.00411877934
0.00423239915
0.00434624421
0.00446031667
0.0045746187
0.00468915245
0.00480392009
0.00491892375
0.0050341656
0.00514964778
0.00526537242
0.00538134167
0.00549755767
0.00561402253
0.00573073839
0.00584770736
0.00596493156
0.0060824131
0.00620015408
0.0063181566
0.00643642275
0.00655495462
0.00667375429
0.00679282382
0.0069121653
0.00703178077
0.00715167228
0.00727184189
0.00739229163
0.00751302352
0.00763403959
0.00775534184
0.00787693229
0.00799881293
0.00812098573
0.00824345268
