# Pulseq sequence file
# Created by MATLAB mr toolbox

[VERSION]
major 1
minor 4
revision 1

[DEFINITIONS]
AdcRasterTime 1e-07 
BlockDurationRaster 1e-05 
FOV 0.256 0.256 0.003 
GradientRasterTime 1e-05 
Name gre_p2 
RadiofrequencyRasterTime 1e-06 
SliceGap 0.001 
SlicePositions 0 
SliceThickness 0.003 
TotalDuration 2.8 

# Format of blocks:
# NUM DUR RF  GX  GY  GZ  ADC  EXT
[BLOCKS]
  1   0   0   0   0   0  0  2
  2 319   1   0   0 516  0  0
  3 100   0   1   4 517  0  0
  4  81   0   0   0   0  0  0
  5 745   0 518   5   3  1  0
  6 755   0   0   0   0  0  0
  7   0   0   0   0   0  0  3
  8   0   0   0   0   0  0  2
  9 319   1   0   0 516  0  0
 10 100   0   1   8 517  0  0
 11  81   0   0   0   0  0  0
 12 745   0 518   9   3  2  0
 13 755   0   0   0   0  0  0
 14   0   0   0   0   0  0  3
 15   0   0   0   0   0  0  2
 16 319   1   0   0 516  0  0
 17 100   0   1  12 517  0  0
 18  81   0   0   0   0  0  0
 19 745   0 518  13   3  3  0
 20 755   0   0   0   0  0  0
 21   0   0   0   0   0  0  3
 22   0   0   0   0   0  0  2
 23 319   1   0   0 516  0  0
 24 100   0   1  16 517  0  0
 25  81   0   0   0   0  0  0
 26 745   0 518  17   3  4  0
 27 755   0   0   0   0  0  0
 28   0   0   0   0   0  0  3
 29   0   0   0   0   0  0  2
 30 319   1   0   0 516  0  0
 31 100   0   1  20 517  0  0
 32  81   0   0   0   0  0  0
 33 745   0 518  21   3  5  0
 34 755   0   0   0   0  0  0
 35   0   0   0   0   0  0  3
 36   0   0   0   0   0  0  2
 37 319   1   0   0 516  0  0
 38 100   0   1  24 517  0  0
 39  81   0   0   0   0  0  0
 40 745   0 518  25   3  1  0
 41 755   0   0   0   0  0  0
 42   0   0   0   0   0  0  3
 43   0   0   0   0   0  0  2
 44 319   1   0   0 516  0  0
 45 100   0   1  28 517  0  0
 46  81   0   0   0   0  0  0
 47 745   0 518  29   3  6  0
 48 755   0   0   0   0  0  0
 49   0   0   0   0   0  0  3
 50   0   0   0   0   0  0  2
 51 319   1   0   0 516  0  0
 52 100   0   1  32 517  0  0
 53  81   0   0   0   0  0  0
 54 745   0 518  33   3  7  0
 55 755   0   0   0   0  0  0
 56   0   0   0   0   0  0  3
 57   0   0   0   0   0  0  2
 58 319   1   0   0 516  0  0
 59 100   0   1  36 517  0  0
 60  81   0   0   0   0  0  0
 61 745   0 518  37   3  8  0
 62 755   0   0   0   0  0  0
 63   0   0   0   0   0  0  3
 64   0   0   0   0   0  0  2
 65 319   1   0   0 516  0  0
 66 100   0   1  40 517  0  0
 67  81   0   0   0   0  0  0
 68 745   0 518  41   3  5  0
 69 755   0   0   0   0  0  0
 70   0   0   0   0   0  0  3
 71   0   0   0   0   0  0  2
 72 319   1   0   0 516  0  0
 73 100   0   1  44 517  0  0
 74  81   0   0   0   0  0  0
 75 745   0 518  45   3  3  0
 76 755   0   0   0   0  0  0
 77   0   0   0   0   0  0  3
 78   0   0   0   0   0  0  2
 79 319   1   0   0 516  0  0
 80 100   0   1  48 517  0  0
 81  81   0   0   0   0  0  0
 82 745   0 518  49   3  9  0
 83 755   0   0   0   0  0  0
 84   0   0   0   0   0  0  3
 85   0   0   0   0   0  0  2
 86 319   1   0   0 516  0  0
 87 100   0   1  52 517  0  0
 88  81   0   0   0   0  0  0
 89 745   0 518  53   3 10  0
 90 755   0   0   0   0  0  0
 91   0   0   0   0   0  0  3
 92   0   0   0   0   0  0  2
 93 319   1   0   0 516  0  0
 94 100   0   1  56 517  0  0
 95  81   0   0   0   0  0  0
 96 745   0 518  57   3  8  0
 97 755   0   0   0   0  0  0
 98   0   0   0   0   0  0  3
 99   0   0   0   0   0  0  2
100 319   1   0   0 516  0  0
101 100   0   1  60 517  0  0
102  81   0   0   0   0  0  0
103 745   0 518  61   3 11  0
104 755   0   0   0   0  0  0
105   0   0   0   0   0  0  3
106   0   0   0   0   0  0  2
107 319   1   0   0 516  0  0
108 100   0   1  64 517  0  0
109  81   0   0   0   0  0  0
110 745   0 518  65   3  7  0
111 755   0   0   0   0  0  0
112   0   0   0   0   0  0  3
113   0   0   0   0   0  0  2
114 319   1   0   0 516  0  0
115 100   0   1  68 517  0  0
116  81   0   0   0   0  0  0
117 745   0 518  69   3 12  0
118 755   0   0   0   0  0  0
119   0   0   0   0   0  0  3
120   0   0   0   0   0  0  2
121 319   1   0   0 516  0  0
122 100   0   1  72 517  0  0
123  81   0   0   0   0  0  0
124 745   0 518  73   3 10  0
125 755   0   0   0   0  0  0
126   0   0   0   0   0  0  3
127   0   0   0   0   0  0  2
128 319   1   0   0 516  0  0
129 100   0   1  76 517  0  0
130  81   0   0   0   0  0  0
131 745   0 518  77   3  4  0
132 755   0   0   0   0  0  0
133   0   0   0   0   0  0  3
134   0   0   0   0   0  0  2
135 319   1   0   0 516  0  0
136 100   0   1  80 517  0  0
137  81   0   0   0   0  0  0
138 745   0 518  81   3  4  0
139 755   0   0   0   0  0  0
140   0   0   0   0   0  0  3
141   0   0   0   0   0  0  2
142 319   1   0   0 516  0  0
143 100   0   1  84 517  0  0
144  81   0   0   0   0  0  0
145 745   0 518  85   3 10  0
146 755   0   0   0   0  0  0
147   0   0   0   0   0  0  3
148   0   0   0   0   0  0  2
149 319   1   0   0 516  0  0
150 100   0   1  88 517  0  0
151  81   0   0   0   0  0  0
152 745   0 518  89   3 12  0
153 755   0   0   0   0  0  0
154   0   0   0   0   0  0  3
155   0   0   0   0   0  0  2
156 319   1   0   0 516  0  0
157 100   0   1  92 517  0  0
158  81   0   0   0   0  0  0
159 745   0 518  93   3  7  0
160 755   0   0   0   0  0  0
161   0   0   0   0   0  0  3
162   0   0   0   0   0  0  2
163 319   1   0   0 516  0  0
164 100   0   1  96 517  0  0
165  81   0   0   0   0  0  0
166 745   0 518  97   3 11  0
167 755   0   0   0   0  0  0
168   0   0   0   0   0  0  3
169   0   0   0   0   0  0  2
170 319   1   0   0 516  0  0
171 100   0   1 100 517  0  0
172  81   0   0   0   0  0  0
173 745   0 518 101   3  8  0
174 755   0   0   0   0  0  0
175   0   0   0   0   0  0  3
176   0   0   0   0   0  0  2
177 319   1   0   0 516  0  0
178 100   0   1 104 517  0  0
179  81   0   0   0   0  0  0
180 745   0 518 105   3 10  0
181 755   0   0   0   0  0  0
182   0   0   0   0   0  0  3
183   0   0   0   0   0  0  2
184 319   1   0   0 516  0  0
185 100   0   1 108 517  0  0
186  81   0   0   0   0  0  0
187 745   0 518 109   3  9  0
188 755   0   0   0   0  0  0
189   0   0   0   0   0  0  3
190   0   0   0   0   0  0  2
191 319   1   0   0 516  0  0
192 100   0   1 112 517  0  0
193  81   0   0   0   0  0  0
194 745   0 518 113   3  3  0
195 755   0   0   0   0  0  0
196   0   0   0   0   0  0  3
197   0   0   0   0   0  0  2
198 319   1   0   0 516  0  0
199 100   0   1 116 517  0  0
200  81   0   0   0   0  0  0
201 745   0 518 117   3  5  0
202 755   0   0   0   0  0  0
203   0   0   0   0   0  0  3
204   0   0   0   0   0  0  2
205 319   1   0   0 516  0  0
206 100   0   1 120 517  0  0
207  81   0   0   0   0  0  0
208 745   0 518 121   3  8  0
209 755   0   0   0   0  0  0
210   0   0   0   0   0  0  3
211   0   0   0   0   0  0  2
212 319   1   0   0 516  0  0
213 100   0   1 124 517  0  0
214  81   0   0   0   0  0  0
215 745   0 518 125   3  7  0
216 755   0   0   0   0  0  0
217   0   0   0   0   0  0  3
218   0   0   0   0   0  0  2
219 319   1   0   0 516  0  0
220 100   0   1 128 517  0  0
221  81   0   0   0   0  0  0
222 745   0 518 129   3  6  0
223 755   0   0   0   0  0  0
224   0   0   0   0   0  0  3
225   0   0   0   0   0  0  2
226 319   1   0   0 516  0  0
227 100   0   1 132 517  0  0
228  81   0   0   0   0  0  0
229 745   0 518 133   3  1  0
230 755   0   0   0   0  0  0
231   0   0   0   0   0  0  3
232   0   0   0   0   0  0  2
233 319   1   0   0 516  0  0
234 100   0   1 136 517  0  0
235  81   0   0   0   0  0  0
236 745   0 518 137   3  5  0
237 755   0   0   0   0  0  0
238   0   0   0   0   0  0  3
239   0   0   0   0   0  0  2
240 319   1   0   0 516  0  0
241 100   0   1 140 517  0  0
242  81   0   0   0   0  0  0
243 745   0 518 141   3  4  0
244 755   0   0   0   0  0  0
245   0   0   0   0   0  0  3
246   0   0   0   0   0  0  2
247 319   1   0   0 516  0  0
248 100   0   1 144 517  0  0
249  81   0   0   0   0  0  0
250 745   0 518 145   3  3  0
251 755   0   0   0   0  0  0
252   0   0   0   0   0  0  3
253   0   0   0   0   0  0  2
254 319   1   0   0 516  0  0
255 100   0   1 148 517  0  0
256  81   0   0   0   0  0  0
257 745   0 518 149   3  2  0
258 755   0   0   0   0  0  0
259   0   0   0   0   0  0  3
260   0   0   0   0   0  0  2
261 319   1   0   0 516  0  0
262 100   0   1 152 517  0  0
263  81   0   0   0   0  0  0
264 745   0 518 153   3  1  0
265 755   0   0   0   0  0  0
266   0   0   0   0   0  0  3
267   0   0   0   0   0  0  2
268 319   1   0   0 516  0  0
269 100   0   1 156 517  0  0
270  81   0   0   0   0  0  0
271 745   0 518 157   3 11  0
272 755   0   0   0   0  0  0
273   0   0   0   0   0  0  3
274   0   0   0   0   0  0  2
275 319   1   0   0 516  0  0
276 100   0   1 160 517  0  0
277  81   0   0   0   0  0  0
278 745   0 518 161   3 11  0
279 755   0   0   0   0  0  0
280   0   0   0   0   0  0  3
281   0   0   0   0   0  0  2
282 319   1   0   0 516  0  0
283 100   0   1 164 517  0  0
284  81   0   0   0   0  0  0
285 745   0 518 165   3  1  0
286 755   0   0   0   0  0  0
287   0   0   0   0   0  0  3
288   0   0   0   0   0  0  2
289 319   1   0   0 516  0  0
290 100   0   1 168 517  0  0
291  81   0   0   0   0  0  0
292 745   0 518 169   3  2  0
293 755   0   0   0   0  0  0
294   0   0   0   0   0  0  3
295   0   0   0   0   0  0  2
296 319   1   0   0 516  0  0
297 100   0   1 172 517  0  0
298  81   0   0   0   0  0  0
299 745   0 518 173   3  3  0
300 755   0   0   0   0  0  0
301   0   0   0   0   0  0  3
302   0   0   0   0   0  0  2
303 319   1   0   0 516  0  0
304 100   0   1 176 517  0  0
305  81   0   0   0   0  0  0
306 745   0 518 177   3  4  0
307 755   0   0   0   0  0  0
308   0   0   0   0   0  0  3
309   0   0   0   0   0  0  2
310 319   1   0   0 516  0  0
311 100   0   1 180 517  0  0
312  81   0   0   0   0  0  0
313 745   0 518 181   3  5  0
314 755   0   0   0   0  0  0
315   0   0   0   0   0  0  3
316   0   0   0   0   0  0  2
317 319   1   0   0 516  0  0
318 100   0   1 184 517  0  0
319  81   0   0   0   0  0  0
320 745   0 518 185   3  1  0
[RF]
1      37.2185 3 4 0 100 0 0

# Format of arbitrary gradients:
#   time_shape_id of 0 means default timing (stepping with grad_raster starting at 1/2 of grad_raster)
# id amplitude amp_shape_id time_shape_id delay
# ..      Hz/m       ..         ..          us
[GRADIENTS]
2       195312 1 2 0
518       936487 5 6 0

# Format of trapezoid gradients:
# id amplitude rise flat fall delay
# ..      Hz/m   us   us   us    us
[TRAP]
 1      -574840 120  760 120   0
 3       932401 190 1240 190 5160
 4      -561798 110  780 110   0
 5       561798 110  780 110 5160
 6      -557409 110  780 110   0
 7       557409 110  780 110 5160
 8      -553020 110  780 110   0
 9       553020 110  780 110 5160
10      -548631 110  780 110   0
11       548631 110  780 110 5160
12      -544242 110  780 110   0
13       544242 110  780 110 5160
14      -539853 110  780 110   0
15       539853 110  780 110 5160
16      -535463 110  780 110   0
17       535463 110  780 110 5160
18      -531074 110  780 110   0
19       531074 110  780 110 5160
20      -526685 110  780 110   0
21       526685 110  780 110 5160
22      -522296 110  780 110   0
23       522296 110  780 110 5160
24      -517907 110  780 110   0
25       517907 110  780 110 5160
26      -513518 110  780 110   0
27       513518 110  780 110 5160
28      -509129 110  780 110   0
29       509129 110  780 110 5160
30      -504740 110  780 110   0
31       504740 110  780 110 5160
32      -500351 110  780 110   0
33       500351 110  780 110 5160
34      -495962 110  780 110   0
35       495962 110  780 110 5160
36      -491573 110  780 110   0
37       491573 110  780 110 5160
38      -487184 110  780 110   0
39       487184 110  780 110 5160
40      -482795 110  780 110   0
41       482795 110  780 110 5160
42      -478406 110  780 110   0
43       478406 110  780 110 5160
44      -474017 110  780 110   0
45       474017 110  780 110 5160
46      -469628 110  780 110   0
47       469628 110  780 110 5160
48      -465239 110  780 110   0
49       465239 110  780 110 5160
50      -460850 110  780 110   0
51       460850 110  780 110 5160
52      -456461 110  780 110   0
53       456461 110  780 110 5160
54      -452072 110  780 110   0
55       452072 110  780 110 5160
56      -447683 110  780 110   0
57       447683 110  780 110 5160
58      -443294 110  780 110   0
59       443294 110  780 110 5160
60      -438904 110  780 110   0
61       438904 110  780 110 5160
62      -434515 110  780 110   0
63       434515 110  780 110 5160
64      -430126 110  780 110   0
65       430126 110  780 110 5160
66      -425737 110  780 110   0
67       425737 110  780 110 5160
68      -421348 110  780 110   0
69       421348 110  780 110 5160
70      -416959 110  780 110   0
71       416959 110  780 110 5160
72      -412570 110  780 110   0
73       412570 110  780 110 5160
74      -408181 110  780 110   0
75       408181 110  780 110 5160
76      -403792 110  780 110   0
77       403792 110  780 110 5160
78      -399403 110  780 110   0
79       399403 110  780 110 5160
80      -395014 110  780 110   0
81       395014 110  780 110 5160
82      -390625 110  780 110   0
83       390625 110  780 110 5160
84      -386236 110  780 110   0
85       386236 110  780 110 5160
86      -381847 110  780 110   0
87       381847 110  780 110 5160
88      -377458 110  780 110   0
89       377458 110  780 110 5160
90      -373069 110  780 110   0
91       373069 110  780 110 5160
92      -368680 110  780 110   0
93       368680 110  780 110 5160
94      -364291 110  780 110   0
95       364291 110  780 110 5160
96      -359902 110  780 110   0
97       359902 110  780 110 5160
98      -355513 110  780 110   0
99       355513 110  780 110 5160
100      -351124 110  780 110   0
101       351124 110  780 110 5160
102      -346735 110  780 110   0
103       346735 110  780 110 5160
104      -342346 110  780 110   0
105       342346 110  780 110 5160
106      -337956 110  780 110   0
107       337956 110  780 110 5160
108      -333567 110  780 110   0
109       333567 110  780 110 5160
110      -329178 110  780 110   0
111       329178 110  780 110 5160
112      -324789 110  780 110   0
113       324789 110  780 110 5160
114      -320400 110  780 110   0
115       320400 110  780 110 5160
116      -316011 110  780 110   0
117       316011 110  780 110 5160
118      -311622 110  780 110   0
119       311622 110  780 110 5160
120      -307233 110  780 110   0
121       307233 110  780 110 5160
122      -302844 110  780 110   0
123       302844 110  780 110 5160
124      -298455 110  780 110   0
125       298455 110  780 110 5160
126      -294066 110  780 110   0
127       294066 110  780 110 5160
128      -289677 110  780 110   0
129       289677 110  780 110 5160
130      -285288 110  780 110   0
131       285288 110  780 110 5160
132      -280899 110  780 110   0
133       280899 110  780 110 5160
134      -276510 110  780 110   0
135       276510 110  780 110 5160
136      -272121 110  780 110   0
137       272121 110  780 110 5160
138      -267732 110  780 110   0
139       267732 110  780 110 5160
140      -263343 110  780 110   0
141       263343 110  780 110 5160
142      -258954 110  780 110   0
143       258954 110  780 110 5160
144      -254565 110  780 110   0
145       254565 110  780 110 5160
146      -250176 110  780 110   0
147       250176 110  780 110 5160
148      -245787 110  780 110   0
149       245787 110  780 110 5160
150      -241397 110  780 110   0
151       241397 110  780 110 5160
152      -237008 110  780 110   0
153       237008 110  780 110 5160
154      -232619 110  780 110   0
155       232619 110  780 110 5160
156      -228230 110  780 110   0
157       228230 110  780 110 5160
158      -223841 110  780 110   0
159       223841 110  780 110 5160
160      -219452 110  780 110   0
161       219452 110  780 110 5160
162      -215063 110  780 110   0
163       215063 110  780 110 5160
164      -210674 110  780 110   0
165       210674 110  780 110 5160
166      -206285 110  780 110   0
167       206285 110  780 110 5160
168      -201896 110  780 110   0
169       201896 110  780 110 5160
170      -197507 110  780 110   0
171       197507 110  780 110 5160
172      -193118 110  780 110   0
173       193118 110  780 110 5160
174      -188729 110  780 110   0
175       188729 110  780 110 5160
176      -184340 110  780 110   0
177       184340 110  780 110 5160
178      -179951 110  780 110   0
179       179951 110  780 110 5160
180      -175562 110  780 110   0
181       175562 110  780 110 5160
182      -171173 110  780 110   0
183       171173 110  780 110 5160
184      -166784 110  780 110   0
185       166784 110  780 110 5160
186      -162395 110  780 110   0
187       162395 110  780 110 5160
188      -158006 110  780 110   0
189       158006 110  780 110 5160
190      -153617 110  780 110   0
191       153617 110  780 110 5160
192      -149228 110  780 110   0
193       149228 110  780 110 5160
194      -144838 110  780 110   0
195       144838 110  780 110 5160
196      -140449 110  780 110   0
197       140449 110  780 110 5160
198      -136060 110  780 110   0
199       136060 110  780 110 5160
200      -131671 110  780 110   0
201       131671 110  780 110 5160
202      -127282 110  780 110   0
203       127282 110  780 110 5160
204      -122893 110  780 110   0
205       122893 110  780 110 5160
206      -118504 110  780 110   0
207       118504 110  780 110 5160
208      -114115 110  780 110   0
209       114115 110  780 110 5160
210      -109726 110  780 110   0
211       109726 110  780 110 5160
212      -105337 110  780 110   0
213       105337 110  780 110 5160
214      -100948 110  780 110   0
215       100948 110  780 110 5160
216       -96559 110  780 110   0
217        96559 110  780 110 5160
218     -92169.9 110  780 110   0
219      92169.9 110  780 110 5160
220     -87780.9 110  780 110   0
221      87780.9 110  780 110 5160
222     -83391.9 110  780 110   0
223      83391.9 110  780 110 5160
224     -79002.8 110  780 110   0
225      79002.8 110  780 110 5160
226     -74613.8 110  780 110   0
227      74613.8 110  780 110 5160
228     -70224.7 110  780 110   0
229      70224.7 110  780 110 5160
230     -65835.7 110  780 110   0
231      65835.7 110  780 110 5160
232     -61446.6 110  780 110   0
233      61446.6 110  780 110 5160
234     -57057.6 110  780 110   0
235      57057.6 110  780 110 5160
236     -52668.5 110  780 110   0
237      52668.5 110  780 110 5160
238     -48279.5 110  780 110   0
239      48279.5 110  780 110 5160
240     -43890.4 110  780 110   0
241      43890.4 110  780 110 5160
242     -39501.4 110  780 110   0
243      39501.4 110  780 110 5160
244     -35112.4 110  780 110   0
245      35112.4 110  780 110 5160
246     -30723.3 110  780 110   0
247      30723.3 110  780 110 5160
248     -26334.3 110  780 110   0
249      26334.3 110  780 110 5160
250     -21945.2 110  780 110   0
251      21945.2 110  780 110 5160
252     -17556.2 110  780 110   0
253      17556.2 110  780 110 5160
254     -13167.1 110  780 110   0
255      13167.1 110  780 110 5160
256     -8778.09 110  780 110   0
257      8778.09 110  780 110 5160
258     -4389.04 110  780 110   0
259      4389.04 110  780 110 5160
260            0 110  780 110   0
261           -0 110  780 110 5160
262      4389.04 110  780 110   0
263     -4389.04 110  780 110 5160
264      8778.09 110  780 110   0
265     -8778.09 110  780 110 5160
266      13167.1 110  780 110   0
267     -13167.1 110  780 110 5160
268      17556.2 110  780 110   0
269     -17556.2 110  780 110 5160
270      21945.2 110  780 110   0
271     -21945.2 110  780 110 5160
272      26334.3 110  780 110   0
273     -26334.3 110  780 110 5160
274      30723.3 110  780 110   0
275     -30723.3 110  780 110 5160
276      35112.4 110  780 110   0
277     -35112.4 110  780 110 5160
278      39501.4 110  780 110   0
279     -39501.4 110  780 110 5160
280      43890.4 110  780 110   0
281     -43890.4 110  780 110 5160
282      48279.5 110  780 110   0
283     -48279.5 110  780 110 5160
284      52668.5 110  780 110   0
285     -52668.5 110  780 110 5160
286      57057.6 110  780 110   0
287     -57057.6 110  780 110 5160
288      61446.6 110  780 110   0
289     -61446.6 110  780 110 5160
290      65835.7 110  780 110   0
291     -65835.7 110  780 110 5160
292      70224.7 110  780 110   0
293     -70224.7 110  780 110 5160
294      74613.8 110  780 110   0
295     -74613.8 110  780 110 5160
296      79002.8 110  780 110   0
297     -79002.8 110  780 110 5160
298      83391.9 110  780 110   0
299     -83391.9 110  780 110 5160
300      87780.9 110  780 110   0
301     -87780.9 110  780 110 5160
302      92169.9 110  780 110   0
303     -92169.9 110  780 110 5160
304        96559 110  780 110   0
305       -96559 110  780 110 5160
306       100948 110  780 110   0
307      -100948 110  780 110 5160
308       105337 110  780 110   0
309      -105337 110  780 110 5160
310       109726 110  780 110   0
311      -109726 110  780 110 5160
312       114115 110  780 110   0
313      -114115 110  780 110 5160
314       118504 110  780 110   0
315      -118504 110  780 110 5160
316       122893 110  780 110   0
317      -122893 110  780 110 5160
318       127282 110  780 110   0
319      -127282 110  780 110 5160
320       131671 110  780 110   0
321      -131671 110  780 110 5160
322       136060 110  780 110   0
323      -136060 110  780 110 5160
324       140449 110  780 110   0
325      -140449 110  780 110 5160
326       144838 110  780 110   0
327      -144838 110  780 110 5160
328       149228 110  780 110   0
329      -149228 110  780 110 5160
330       153617 110  780 110   0
331      -153617 110  780 110 5160
332       158006 110  780 110   0
333      -158006 110  780 110 5160
334       162395 110  780 110   0
335      -162395 110  780 110 5160
336       166784 110  780 110   0
337      -166784 110  780 110 5160
338       171173 110  780 110   0
339      -171173 110  780 110 5160
340       175562 110  780 110   0
341      -175562 110  780 110 5160
342       179951 110  780 110   0
343      -179951 110  780 110 5160
344       184340 110  780 110   0
345      -184340 110  780 110 5160
346       188729 110  780 110   0
347      -188729 110  780 110 5160
348       193118 110  780 110   0
349      -193118 110  780 110 5160
350       197507 110  780 110   0
351      -197507 110  780 110 5160
352       201896 110  780 110   0
353      -201896 110  780 110 5160
354       206285 110  780 110   0
355      -206285 110  780 110 5160
356       210674 110  780 110   0
357      -210674 110  780 110 5160
358       215063 110  780 110   0
359      -215063 110  780 110 5160
360       219452 110  780 110   0
361      -219452 110  780 110 5160
362       223841 110  780 110   0
363      -223841 110  780 110 5160
364       228230 110  780 110   0
365      -228230 110  780 110 5160
366       232619 110  780 110   0
367      -232619 110  780 110 5160
368       237008 110  780 110   0
369      -237008 110  780 110 5160
370       241397 110  780 110   0
371      -241397 110  780 110 5160
372       245787 110  780 110   0
373      -245787 110  780 110 5160
374       250176 110  780 110   0
375      -250176 110  780 110 5160
376       254565 110  780 110   0
377      -254565 110  780 110 5160
378       258954 110  780 110   0
379      -258954 110  780 110 5160
380       263343 110  780 110   0
381      -263343 110  780 110 5160
382       267732 110  780 110   0
383      -267732 110  780 110 5160
384       272121 110  780 110   0
385      -272121 110  780 110 5160
386       276510 110  780 110   0
387      -276510 110  780 110 5160
388       280899 110  780 110   0
389      -280899 110  780 110 5160
390       285288 110  780 110   0
391      -285288 110  780 110 5160
392       289677 110  780 110   0
393      -289677 110  780 110 5160
394       294066 110  780 110   0
395      -294066 110  780 110 5160
396       298455 110  780 110   0
397      -298455 110  780 110 5160
398       302844 110  780 110   0
399      -302844 110  780 110 5160
400       307233 110  780 110   0
401      -307233 110  780 110 5160
402       311622 110  780 110   0
403      -311622 110  780 110 5160
404       316011 110  780 110   0
405      -316011 110  780 110 5160
406       320400 110  780 110   0
407      -320400 110  780 110 5160
408       324789 110  780 110   0
409      -324789 110  780 110 5160
410       329178 110  780 110   0
411      -329178 110  780 110 5160
412       333567 110  780 110   0
413      -333567 110  780 110 5160
414       337956 110  780 110   0
415      -337956 110  780 110 5160
416       342346 110  780 110   0
417      -342346 110  780 110 5160
418       346735 110  780 110   0
419      -346735 110  780 110 5160
420       351124 110  780 110   0
421      -351124 110  780 110 5160
422       355513 110  780 110   0
423      -355513 110  780 110 5160
424       359902 110  780 110   0
425      -359902 110  780 110 5160
426       364291 110  780 110   0
427      -364291 110  780 110 5160
428       368680 110  780 110   0
429      -368680 110  780 110 5160
430       373069 110  780 110   0
431      -373069 110  780 110 5160
432       377458 110  780 110   0
433      -377458 110  780 110 5160
434       381847 110  780 110   0
435      -381847 110  780 110 5160
436       386236 110  780 110   0
437      -386236 110  780 110 5160
438       390625 110  780 110   0
439      -390625 110  780 110 5160
440       395014 110  780 110   0
441      -395014 110  780 110 5160
442       399403 110  780 110   0
443      -399403 110  780 110 5160
444       403792 110  780 110   0
445      -403792 110  780 110 5160
446       408181 110  780 110   0
447      -408181 110  780 110 5160
448       412570 110  780 110   0
449      -412570 110  780 110 5160
450       416959 110  780 110   0
451      -416959 110  780 110 5160
452       421348 110  780 110   0
453      -421348 110  780 110 5160
454       425737 110  780 110   0
455      -425737 110  780 110 5160
456       430126 110  780 110   0
457      -430126 110  780 110 5160
458       434515 110  780 110   0
459      -434515 110  780 110 5160
460       438904 110  780 110   0
461      -438904 110  780 110 5160
462       443294 110  780 110   0
463      -443294 110  780 110 5160
464       447683 110  780 110   0
465      -447683 110  780 110 5160
466       452072 110  780 110   0
467      -452072 110  780 110 5160
468       456461 110  780 110   0
469      -456461 110  780 110 5160
470       460850 110  780 110   0
471      -460850 110  780 110 5160
472       465239 110  780 110   0
473      -465239 110  780 110 5160
474       469628 110  780 110   0
475      -469628 110  780 110 5160
476       474017 110  780 110   0
477      -474017 110  780 110 5160
478       478406 110  780 110   0
479      -478406 110  780 110 5160
480       482795 110  780 110   0
481      -482795 110  780 110 5160
482       487184 110  780 110   0
483      -487184 110  780 110 5160
484       491573 110  780 110   0
485      -491573 110  780 110 5160
486       495962 110  780 110   0
487      -495962 110  780 110 5160
488       500351 110  780 110   0
489      -500351 110  780 110 5160
490       504740 110  780 110   0
491      -504740 110  780 110 5160
492       509129 110  780 110   0
493      -509129 110  780 110 5160
494       513518 110  780 110   0
495      -513518 110  780 110 5160
496       517907 110  780 110   0
497      -517907 110  780 110 5160
498       522296 110  780 110   0
499      -522296 110  780 110 5160
500       526685 110  780 110   0
501      -526685 110  780 110 5160
502       531074 110  780 110   0
503      -531074 110  780 110 5160
504       535463 110  780 110   0
505      -535463 110  780 110 5160
506       539853 110  780 110   0
507      -539853 110  780 110 5160
508       544242 110  780 110   0
509      -544242 110  780 110 5160
510       548631 110  780 110   0
511      -548631 110  780 110 5160
512       553020 110  780 110   0
513      -553020 110  780 110 5160
514       557409 110  780 110   0
515      -557409 110  780 110 5160
516       444444  90 3000  90  10
517      -827309 170  660 170   0

# Format of ADC events:
# id num dwell delay freq phase
# ..  ..    ns    us   Hz   rad
[ADC]
1 256 20000 40 0 1.88496
2 256 20000 40 0 3.76991
3 256 20000 40 0 3.45575
4 256 20000 40 0 0.942478
5 256 20000 40 0 2.51327
6 256 20000 40 0 5.34071
7 256 20000 40 0 0.314159
8 256 20000 40 0 5.65487
9 256 20000 40 0 2.19911
10 256 20000 40 0 5.02655
11 256 20000 40 0 4.08407
12 256 20000 40 0 0.628319

# Format of extension lists:
# id type ref next_id
# next_id of 0 terminates the list
# Extension list is followed by extension specifications
[EXTENSIONS]
1 1 3 0
2 1 4 1
3 2 1 0
4 1 1 0
5 1 2 4
6 2 2 0
7 1 4 4
8 2 3 0

# Extension specification for setting labels:
# id set labelstring
extension LABELSET 1
1 1 REF
2 1 IMA
3 0 REF
4 0 IMA

# Extension specification for increasing labels:
# id set labelstring
extension LABELINC 2
1 2 LIN
2 1 LIN
3 0 LIN

# Sequence Shapes
[SHAPES]

shape_id 1
num_samples 3
0
1
1

shape_id 2
num_samples 3
0
4
516

shape_id 3
num_samples 3000
5.33512061e-05
0.000160161335
0.000267116839
0.000374219827
0.000481472412
0.000588876712
0.00069643485
0.000804148955
0.000912021157
0.00102005359
0.0011282484
0.00123660773
0.00134513373
0.00145382854
0.00156269432
0.00167173322
0.00178094741
0.00189033905
0.0019999103
0.00210966333
0.00221960031
0.00232972341
0.00244003479
0.00255053664
0.00266123112
0.00277212042
0.0028832067
0.00299449215
0.00310597893
0.00321766924
0.00332956523
0.0034416691
0.00355398301
0.00366650915
0.00377924967
0.00389220677
0.0040053826
0.00411877934
0.00423239915
0.00434624421
0.00446031667
0.0045746187
0.00468915245
0.00480392009
0.00491892375
0.0050341656
0.00514964778
0.00526537242
0.00538134167
0.00549755767
0.00561402253
0.00573073839
0.00584770736
0.00596493156
0.0060824131
0.00620015408
0.0063181566
0.00643642275
0.00655495462
0.00667375429
0.00679282382
0.0069121653
0.00703178077
